t,u (m),v (m/s),a (m/s2)
0.2033,0.0,0.0,0.0
0.2067,1.7355819156359404e-11,9.256435071566227e-09,1.1107719911689353e-05
0.21,1.1609488112466711e-10,4.9575344384911745e-08,1.5059521970672793e-05
0.2133,3.702045433853333e-10,1.0254412731178323e-07,1.8383961158698493e-05
0.2167,8.180757239795293e-10,1.6591691526688563e-07,2.089544718476234e-05
0.22,1.4896520306782923e-09,2.368665265071681e-07,2.245317526911101e-05
0.2233,2.4047531140730423e-09,3.121402874652207e-07,2.296896966171481e-05
0.2267,3.5719553509778655e-09,3.882389861610254e-07,2.2411511575441134e-05
0.23,4.9880865119475106e-09,4.6160671024747226e-07,2.0806716944495427e-05
0.2333,6.638349441159783e-09,5.288188083030888e-07,1.8234351046195424e-05
0.2367,8.497048118681858e-09,5.867557144133127e-07,1.4821220585220072e-05
0.24,1.0528850969234506e-08,6.327517612326411e-07,1.0731583623790324e-05
0.2433,1.2690493861971372e-08,6.647103864422399e-07,6.155591873572249e-06
0.2467,1.493280129254711e-08,6.811799442813953e-07,1.296689917831221e-06
0.25,1.720289020634623e-08,6.81387482667366e-07,-3.6410237390762408e-06
0.2533,1.944641759703198e-08,6.652311378412423e-07,-8.46453877924999e-06
0.2567,2.1609740196186267e-08,6.332348159715557e-07,-1.300196239044422e-05
0.26,2.3641871095641e-08,5.864714236891385e-07,-1.7110172583587196e-05
0.2633,2.5496142272538275e-08,5.264628912612806e-07,-2.0679707067613338e-05
0.2667,2.7131511279287377e-08,4.5506634296587503e-07,-2.3636719981727227e-05
0.27,2.8513482068500173e-08,3.743561118911489e-07,-2.594209838693358e-05
0.2733,2.9614641307593826e-08,2.8651076129067905e-07,-2.758810492628032e-05
0.2767,3.041483985155912e-08,1.9371295138093823e-07,-2.8593035316110973e-05
0.28,3.0901072109385964e-08,9.8068176077019e-08,-2.8994601950925968e-05
0.2833,3.106712218068913e-08,1.546029068718766e-09,-2.8842747885657463e-05
0.2867,3.091305383113182e-08,-9.405473870823178e-08,-2.8192655220260756e-05
0.29,3.044462152141016e-08,-1.871185568213677e-07,-2.709859421576263e-05
0.2933,2.967267229229715e-08,-2.7620603797608697e-07,-2.560917381313567e-05
0.2967,2.8612594620171126e-08,-3.6003261042330394e-07,-2.3764345807717976e-05
0.3,2.7283852112180693e-08,-4.3743877983550197e-07,-2.1594347689999408e-05
0.3033,2.5709619250134644e-08,-5.073584414421115e-07,-1.9120534434911222e-05
0.3067,2.391651554243264e-08,-5.68791349938494e-07,-1.6357872461307233e-05
0.31,2.1934415587746173e-08,-6.207849692089348e-07,-1.3318713528128926e-05
0.3133,1.979629751472894e-08,-6.624295197366745e-07,-1.0017310267255047e-05
0.3167,1.7538082546150318e-08,-6.928682366783183e-07,-6.474522378634438e-06
0.32,1.519841487784213e-08,-7.113229664904316e-07,-2.7221043039085942e-06
0.3233,1.2818333870074068e-08,-7.171332798299226e-07,1.1939382690872947e-06
0.3267,1.0440799381771687e-08,-7.098056173613085e-07,5.211378433922982e-06
0.33,8.110044940288848e-09,-6.890676158791688e-07,9.251461605770187e-06
0.3333,5.870750919127547e-09,-6.549219639036006e-07,1.3220389533097925e-05
0.3367,3.7670491875592796e-09,-6.076938459957156e-07,1.7012561797030614e-05
0.34,1.8413899971740144e-09,-5.480663146920438e-07,2.0515338167750898e-05
0.3433,1.3331924483272584e-10,-4.770988144060209e-07,2.3614969170831968e-05
0.3467,-1.3217719817486474e-09,-3.962253600362588e-07,2.6203218735324002e-05
0.35,-2.4938547540997916e-09,-3.0723051180770736e-07,2.8184140764808175e-05
0.3533,-3.3593525576773953e-09,-2.122031007866649e-07,2.9480448610391316e-05
0.3567,-3.902043377616198e-09,-1.1346950433914627e-07,3.0038946714889018e-05
0.36,-4.1137113593305165e-09,-1.3509971222534306e-08,2.983457611635479e-05
0.3633,-3.994499753926859e-09,8.513711100132059e-08,2.8872747148922935e-05
0.3667,-3.5529348341764323e-09,1.7997710358455218e-07,2.7189727376695632e-05
0.37,-2.8056110587319242e-09,2.686606819147499e-07,2.4851091035781232e-05
0.3733,-1.776549244870435e-09,3.49078661402675e-07,2.1948283389255558e-05
0.3767,-4.962602123741353e-10,4.1944405358179156e-07,1.8593603919456093e-05
0.38,9.994352683848943e-10,4.783563576858928e-07,1.4913939328985184e-05
0.3833,2.6707648057865687e-09,5.24844316253184e-07,1.1043721374508118e-05
0.3867,4.475465689366819e-09,5.583849715130482e-07,7.117614310143519e-06
0.39,6.370269447320483e-09,5.788985381140355e-07,3.263432172442075e-06
0.3933,8.31233109346819e-09,5.867202688270301e-07,-4.042214989334982e-07
0.3967,1.0260531026906793e-08,5.825520625611738e-07,-3.789182043181335e-06
0.4,1.2176588823137684e-08,5.673978416100619e-07,-6.817515452303628e-06
0.4033,1.4025943148640625e-08,5.424876752946231e-07,-9.439647370611804e-06
0.4067,1.577836959762015e-08,5.091962315751189e-07,-1.1630782531936438e-05
0.41,1.7408326995699655e-08,4.689612306284395e-07,-1.3389644089640872e-05
0.4133,1.8895041217317603e-08,4.232073440936528e-07,-1.4735720825957544e-05
0.4167,2.0222352558311312e-08,3.7328030022469364e-07,-1.5705278437805852e-05
0.42,2.137836697952171e-08,3.203950106384505e-07,-1.6346499768156576e-05
0.4233,2.2354962201718748e-08,2.6560030347818603e-07,-1.6714136417437984e-05
0.4267,2.3147206046666623e-08,2.097615320107739e-07,-1.6864103392936777e-05
0.43,2.3752746323837202e-08,1.5356092760405592e-07,-1.684840190861864e-05
0.4333,2.4171228977300783e-08,9.751427772541602e-08,-1.6710760964040818e-05
0.4367,2.4403794479383745e-08,4.200129999629296e-08,-1.6483277343705217e-05
0.44,2.445269223063114e-08,-1.2693800943862038e-08,-1.6184276250056657e-05
0.4433,2.4321039923669718e-08,-6.633577124170328e-08,-1.5817523007589556e-05
0.4467,2.4012740368306897e-08,-1.1869025160034174e-07,-1.537279511035853e-05
0.45,2.3532553304028146e-08,-1.6947870628668666e-07,-1.4827748363133994e-05
0.4533,2.2886305354384197e-08,-2.183404938513387e-07,-1.415088851131976e-05
0.4567,2.2081208530501865e-08,-2.648055754290792e-07,-1.330542144541691e-05
0.46,2.1126247460296202e-08,-3.0828051391799023e-07,-1.2253651638867418e-05
0.4633,2.003258849699742e-08,-3.4804932359259365e-07,-1.0961607351857757e-05
0.4667,1.8813960538526967e-08,-3.8328960987657327e-07,-9.403513207816679e-06
0.47,1.748695796261004e-08,-4.13103210962117e-07,-7.565774676459336e-06
0.4733,1.6071220519663276e-08,-4.3655946368113646e-07,-5.4501737239427905e-06
0.4767,1.4589452926770008e-08,-4.527482285830187e-07,-3.075992907945623e-06
0.48,1.3067257812327602e-08,-4.6083898119826045e-07,-4.809225140634073e-07
0.4833,1.1532768742215138e-08,-4.6014181131154004e-07,2.2793712425005383e-06
0.4867,1.0016084389068248e-08,-4.5016587614609125e-07,5.13300612784765e-06
0.49,8.548519571653806e-09,-4.306709542178283e-07,7.994883351323971e-06
0.4933,7.161702764308071e-09,-4.0170811959800555e-07,1.0770744686903824e-05
0.4967,5.886561828242324e-09,-3.6364621873007966e-07,1.3362038040661399e-05
0.5,4.752249294345739e-09,-3.1718171448271614e-07,1.5671280061075262e-05
0.5033,3.7850648242609224e-09,-2.633305484327104e-07,1.7607546427994387e-05
0.5067,3.0074349817029425e-09,-2.0340187130252813e-07,1.9091759195937647e-05
0.51,2.4370090079719926e-09,-1.3895464767537736e-07,2.006137562713501e-05
0.5133,2.085923920564945e-09,-7.173936564324917e-08,2.04741957693427e-05
0.5167,1.9602832593550454e-09,-3.6280181856782746e-09,2.031101364277929e-05
0.52,2.0598818610386193e-09,6.346363487396347e-08,1.957692698446461e-05
0.5233,2.3781948150582344e-09,1.2765698579603787e-07,1.8301225075093145e-05
0.5267,2.9026333025137028e-09,1.871899380010186e-07,1.6535853437349027e-05
0.53,3.615054368897423e-09,2.4049004505952636e-07,1.4352555638810537e-05
0.5333,4.4924968615755855e-09,2.862371873936503e-07,1.183889313923733e-05
0.5367,5.508102845344465e-09,3.2341227122123573e-07,9.093412443551604e-06
0.54,6.632173657249751e-09,3.5132936924842587e-07,6.220273744688831e-06
0.5433,7.833303008251024e-09,3.6964982460401197e-07,3.32372088945181e-06
0.5467,9.079526672219487e-09,3.7837807952752825e-07,5.027411897351463e-07
0.55,1.03394294477708e-08,3.778401540580566e-07,-2.15373400622118e-06
0.5533,1.1583155035954644e-08,3.6864682906565876e-07,-4.570785812847318e-06
0.5567,1.2783272903745784e-08,3.5164454207681615e-07,-6.69038295450101e-06
0.56,1.3915467371311248e-08,3.278577005731196e-07,-8.473055353780213e-06
0.5633,1.495902714351496e-08,2.9842649985878236e-07,-9.898267882940676e-06
0.5667,1.5897127392045293e-08,2.645445088688726e-07,-1.0963577580726214e-05
0.57,1.6716910201823044e-08,2.2739998765326536e-07,-1.168268399188979e-05
0.5733,1.740938165372119e-08,1.8812445748227604e-07,-1.208257500431729e-05
0.5767,1.796915428066082e-08,1.4775129145662552e-07,-1.2200064734810941e-05
0.58,1.8394071249469138e-08,1.0718612449434274e-07,-1.2077996622190712e-05
0.5833,1.868475300843517e-08,6.718992242770809e-08,-1.176144321891449e-05
0.5867,1.8844108167743415e-08,2.8374482173561976e-08,-1.1294189531099186e-05
0.59,1.8876848052257998e-08,-8.790807345691305e-09,-1.071577010026799e-05
0.5933,1.8789039104626158e-08,-4.3962939485821476e-08,-1.005924000597497e-05
0.5967,1.858771973710732e-08,-7.690255612509549e-08,-9.349812212209217e-06
0.6,1.8280599121498146e-08,-1.0744742447833229e-07,-8.604398212750281e-06
0.6033,1.787584559811028e-08,-1.3548509929138488e-07,-7.832008551806153e-06
0.6067,1.7381962817670617e-08,-1.6092754303693567e-07,-7.034900863215071e-06
0.61,1.680774322812893e-08,-1.836900403527982e-07,-6.210288842839407e-06
0.6133,1.616228179635035e-08,-2.0367610561047757e-07,-5.352407086286537e-06
0.6167,1.5455028409687096e-08,-2.207693569629177e-07,-4.4546763491342915e-06
0.62,1.4695855517332666e-08,-2.3483251059558967e-07,-3.511752008591236e-06
0.6233,1.3895118257838876e-08,-2.4571292904432474e-07,-2.521243557070213e-06
0.6267,1.3063687332335154e-08,-2.532534783092181e-07,-1.484926675505695e-06
0.63,1.2212939854620419e-08,-2.573069446790654e-07,-4.093786652045727e-07
0.6333,1.1354699619223188e-08,-2.577520340692039e-07,6.940288319919543e-07
0.6367,1.0501124988433273e-08,-2.5450886193885245e-07,1.8097192986760718e-06
0.64,9.6645492173547e-09,-2.475520536409473e-07,2.919010427413742e-06
0.6433,8.857283732805175e-09,-2.369199061369966e-07,4.001543225176405e-06
0.6467,8.091399095142092e-09,-2.2271863535766776e-07,5.036891924011638e-06
0.65,7.378500666656828e-09,-2.0512129959981053e-07,6.006123004058067e-06
0.6533,6.729516217283029e-09,-1.8436169290206604e-07,6.893154149016061e-06
0.6567,6.154510810557507e-09,-1.6072404185946212e-07,7.685713251966344e-06
0.66,5.662540604457045e-09,-1.3452990942823393e-07,8.3758130089876e-06
0.6633,5.261552079806209e-09,-1.0612397704682928e-07,8.959673158618769e-06
0.6667,4.958327368691629e-09,-7.586054512113835e-08,9.43709172657156e-06
0.67,4.758470364615595e-09,-4.40925152627564e-08,9.810353188536153e-06
0.6733,4.6664229557783895e-09,-1.1164298377936516e-08,1.0082792961858329e-05
0.6767,4.685496653721372e-09,2.2590348589208226e-08,1.0257189546566282e-05
0.68,4.817902555543942e-09,5.6845155859770023e-08,1.0334192039063142e-05
0.6833,5.064762399353685e-09,9.127313787488598e-08,1.0310994214361542e-05
0.6867,5.42608555197808e-09,1.2553431282650482e-07,1.0180419251450157e-05
0.69,5.9007009075527736e-09,1.5926086761498822e-07,9.930600069995594e-06
0.6933,6.4861386048836525e-09,1.9204181450618867e-07,9.545328359728067e-06
0.6967,7.178463653526405e-09,2.2340940543378916e-07,9.005116666185657e-06
0.7,7.97207121611209e-09,2.528296420200807e-07,8.288926994644937e-06
0.7033,8.859460721097716e-09,2.796990064569344e-07,7.376450029101141e-06
0.7067,9.831012329876408e-09,3.0334910396747426e-07,6.250761370310747e-06
0.71,1.0874793873745336e-08,3.230602863822421e-07,4.901130156944375e-06
0.7133,1.1976428620708543e-08,3.380845388269271e-07,3.325708933829724e-06
0.7167,1.3119053702427129e-08,3.476770272820555e-07,1.5338570915411305e-06
0.72,1.4283395630978657e-08,3.511348700115055e-07,-4.5216081147591554e-07
0.7233,1.544798319296094e-08,3.478408789179697e-07,-2.5963061041088447e-06
0.7267,1.6589509450649706e-08,3.3730938406668175e-07,-4.848873035537564e-06
0.73,1.7683344255037952e-08,3.1923082573519215e-07,-7.1476466448075834e-06
0.7333,1.8704187365829966e-08,2.935116332284672e-07,-9.420085032615875e-06
0.7367,1.9626840888464223e-08,2.6030603551000785e-07,-1.1586454364834186e-05
0.74,2.0427069184350322e-08,2.2003681085891825e-07,-1.3563697028201344e-05
0.7433,2.1082505636479683e-08,1.7340270512498283e-07,-1.5269824842504993e-05
0.7467,2.157355942189482e-08,1.2137103851668286e-07,-1.6628513181029847e-05
0.75,2.1884272276805622e-08,6.515508376771874e-08,-1.7573592951429225e-05
0.7533,2.200307558357941e-08,6.1768355425163044e-09,-1.805310516289804e-05
0.7567,2.1923401939806834e-08,-5.398314367090898e-08,-1.8032645436789098e-05
0.76,2.1644112504260036e-08,-1.1364620582374821e-07,-1.749772425913062e-05
0.7633,2.1169711377132765e-08,-1.7110303140825855e-07,-1.645500442832143e-05
0.7667,2.0510330342858773e-08,-2.2468412784910126e-07,-1.4932289858695293e-05
0.77,1.9681480590476554e-08,-2.728292718919807e-07,-1.297729196683698e-05
0.7733,1.87035816132345e-08,-3.1415187967806436e-07,-1.0655243736762773e-05
0.7767,1.760129031119058e-08,-3.474946158328731e-07,-8.045544343801129e-06
0.78,1.640266453319007e-08,-3.7197319820164347e-07,-5.2376600614893704e-06
0.7833,1.5138204072397612e-08,-3.870061674082518e-07,-2.326579332455336e-06
0.7867,1.3839817914640966e-08,-3.923293812724663e-07,5.918826106472895e-07
0.79,1.2539768993561702e-08,-3.879949987119846e-07,3.4256102225583183e-06
0.7933,1.1269646771255122e-08,-3.7435575330936944e-07,6.0902606118203416e-06
0.7967,1.005941379983899e-08,-3.520362199882067e-07,8.512652907429137e-06
0.8,8.936565519768247e-09,-3.218935149132654e-07,1.0633280287597725e-05
0.8033,7.925433506537456e-09,-2.84970426061803e-07,1.2407857086312382e-05
0.8067,7.046651974577515e-09,-2.4244422373455207e-07,1.3807861545032044e-05
0.81,6.316796445876101e-09,-1.95574452415526e-07,1.4820129938767588e-05
0.8133,5.7481928902854675e-09,-1.456527692115266e-07,1.5445618302683127e-05
0.8167,5.348886152253404e-09,-9.395746427666837e-08,1.5697498871371414e-05
0.82,5.122748699587643e-09,-4.171470043496724e-08,1.559880772492861e-05
0.8233,5.069705142322137e-09,9.93221265933472e-09,1.517986040733392e-05
0.8267,5.18604479933314e-09,5.994492225859977e-08,1.4475658549922242e-05
0.83,5.464793852495579e-09,1.0740366023174281e-07,1.3523498770698394e-05
0.8333,5.896120179169645e-09,1.5151318658061692e-07,1.2360924945924015e-05
0.8367,6.467747376274534e-09,1.916023104658288e-07,1.1024164408181366e-05
0.84,7.165359320241382e-09,2.271186360260853e-07,9.547089105540853e-06
0.8433,7.97298227639517e-09,2.576202905716703e-07,7.96071097372353e-06
0.8467,8.873337394558286e-09,2.8276637730048327e-07,6.293165246987117e-06
0.85,9.848161902398763e-09,3.02307700249275e-07,4.570087207641179e-06
0.8533,1.0878501901156682e-08,3.160789723620108e-07,2.815261677705506e-06
0.8567,1.194498300940839e-08,3.2399330205612953e-07,1.0514087408751508e-06
0.86,1.3028066992978442e-08,3.260392984039002e-07,-6.990310858727764e-07
0.8633,1.4108302890198499e-08,3.2228067764800415e-07,-2.4132507666164123e-06
0.8667,1.5166580067781596e-08,3.128578381973325e-07,-4.067652827680921e-06
0.87,1.618438841386112e-08,2.9799059912435496e-07,-5.637724912451056e-06
0.8733,1.7144087833714445e-08,2.779810777443821e-07,-7.098246218694368e-06
0.8767,1.8029185711966885e-08,2.532156238287577e-07,-8.4238002256529e-06
0.88,1.882461754500603e-08,2.2416481609639155e-07,-9.589561778305687e-06
0.8833,1.9517022912321806e-08,1.9138068752403013e-07,-1.0572261251443611e-05
0.8867,2.0095006674800362e-08,1.5549064738397996e-07,-1.1351255983726865e-05
0.89,2.0549374009893468e-08,1.1718785805692316e-07,-1.1909570244568481e-05
0.8933,2.087332775094773e-08,7.72182301159105e-08,-1.223483340727664e-05
0.8967,2.1062617502800983e-08,3.6364470470291676e-08,-1.2320001757011024e-05
0.9,2.111563199683304e-08,-4.572050256539974e-09,-1.216380998582399e-05
0.9033,2.103342897676412e-08,-4.47906787249679e-08,-1.1770914757922152e-05
0.9067,2.0819700195532703e-08,-8.351106535960122e-08,-1.1151710592987442e-05
0.91,2.048067258995444e-08,-1.199919007387638e-07,-1.0321862107261838e-05
0.9133,2.00249499973945e-08,-1.535478805230031e-07,-9.301581537532997e-06
0.9167,1.9463302593852712e-08,-1.835641248346512e-07,-8.114741511037922e-06
0.92,1.8808413340994015e-08,-2.0950756313903742e-07,-6.787895338446562e-06
0.9233,1.807459193147313e-08,-2.309350507220524e-07,-5.3492940513005505e-06
0.9267,1.727746701172055e-08,-2.474982771656751e-07,-3.827985688005776e-06
0.93,1.6433666819586217e-08,-2.5894579378830764e-07,-2.253060194301199e-06
0.9333,1.556049697305891e-08,-2.651226765061659e-07,-6.530772276743714e-07
0.9367,1.4675622215544064e-08,-2.659684659637936e-07,9.442845325324561e-07
0.94,1.3796756678581071e-08,-2.6151409713609326e-07,2.51238794938232e-06
0.9433,1.2941364987788219e-08,-2.518784448937761e-07,4.025616579371416e-06
0.9467,1.2126374579062839e-08,-2.3726503970602394e-07,5.459233054730721e-06
0.95,1.1367898098299673e-08,-2.1795929666965097e-07,6.7891879448418665e-06
0.9533,1.0680964003951323e-08,-1.9432636665247514e-07,7.991946635084134e-06
0.9567,1.0079253498230722e-08,-1.6680949647012337e-07,9.044397850292346e-06
0.96,9.574842667929868e-09,-1.3592855972281878e-07,9.923923292445123e-06
0.9633,9.177950209658644e-09,-1.0227819532933725e-07,1.0608659490904369e-05
0.9667,8.89669315461819e-09,-6.652489193475487e-08,1.1077977202900558e-05
0.97,8.736855332799105e-09,-2.940228367895475e-08,1.1313189578745238e-05
0.9733,8.701675738195692e-09,8.296067113258903e-09,1.1298443359674626e-05
0.9767,8.791666140750498e-09,4.572698479536606e-08,1.102176234757448e-05
0.98,9.00446898809169e-09,8.201153208339263e-08,1.0476161180242475e-05
0.9833,9.334767654337896e-09,1.1625256746367045e-07,9.660750872928585e-06
0.9867,9.774261187078532e-09,1.4755589791133701e-07,8.581736565757166e-06
0.99,1.0311714825760464e-08,1.750546077209143e-07,7.253235615209458e-06
0.9933,1.0933095701252247e-08,1.9793586903190422e-07,5.697801353113325e-06
0.9967,1.1621800271481928e-08,2.1546920907894765e-07,3.946599878808017e-06
1.0,1.2358976349654645e-08,2.27035039397419e-07,2.0391940291110394e-06
1.003,1.3123938320315568e-08,2.3215208660461164e-07,2.2873359384614634e-08
1.007,1.3894669416099802e-08,2.305022415497883e-07,-2.0484337564193506e-06
1.01,1.4648400101211772e-08,2.2195141951926485e-07,-4.115683158917301e-06
1.013,1.5362246971629113e-08,2.065650471260765e-07,-6.116593781058739e-06
1.017,1.6013892359489143e-08,1.8461702996368666e-07,-7.987834096449688e-06
1.02,1.6582281358641287e-08,1.5659125925506813e-07,-9.66741597818312e-06
1.023,1.7048310410066005e-08,1.2317505199632575e-07,-1.1097192927003209e-05
1.027,1.7395480158594295e-08,8.524427249470553e-08,-1.2225347711594766e-05
1.03,1.7610485108972184e-08,4.3840276147859265e-08,-1.3008742756287676e-05
1.033,1.7683713751983482e-08,1.3922225292100734e-10,-1.341502614037687e-05
1.037,1.760963528733501e-08,-4.458531989307242e-08,-1.3424361648974296e-05
1.04,1.738705281489342e-08,-8.900514447397546e-08,-1.303069411664688e-05
1.043,1.7019207782265087e-08,-1.3178393947241137e-07,-1.2242461600120441e-05
1.047,1.6513726349500955e-08,-1.7162567104044477e-07,-1.1082683723086482e-05
1.05,1.588240497980915e-08,-2.073227300439861e-07,-9.588411250315883e-06
1.053,1.5140839657108346e-08,-2.3780167989094682e-07,-7.809498906382196e-06
1.057,1.4307910384143184e-08,-2.6216440406057323e-07,-5.806766561986703e-06
1.06,1.34051396389055e-08,-2.7972264365102627e-07,-3.6495836984308913e-06
1.063,1.2455949873876013e-08,-2.9002408401796625e-07,-1.4129749253899327e-06
1.067,1.148485065212997e-08,-2.928685201346395e-07,8.256021042748831e-07
1.07,1.0516590129708694e-08,-2.8831310549004785e-07,2.9896901906905044e-06
1.073,9.575308116581815e-09,-2.7666615603223054e-07,5.007266041625114e-06
1.077,8.68372862846197e-09,-2.584696358895062e-07,6.814021772319273e-06
1.08,7.862428469924263e-09,-2.3447101419546954e-07,8.356275078989737e-06
1.083,7.1292149858095276e-09,-2.0558585330956232e-07,9.593361041452243e-06
1.087,6.498640725974515e-09,-1.728530005773381e-07,1.0499332465883205e-05
1.09,5.981675662977574e-09,-1.373847812110741e-07,1.1063857510943711e-05
1.093,5.585549047681791e-09,-1.0031493116795367e-07,1.129223881179221e-05
