Tiempo [s],u [m],v [m/s],a [m/s²]
0.2033,0.0,0.0,0.0
0.2067,1.7355819156359404e-11,5.206744727756003e-09,6.2480924503252605e-06
0.21,8.337739554122392e-11,2.5013213766359473e-08,5.023480843122227e-06
0.2133,2.1624731914184368e-10,4.404720413326077e-08,7.770341440131743e-06
0.2167,4.282847431784753e-10,7.008650056082551e-08,7.9361252764638e-06
0.22,7.31433463145712e-10,9.75580372138417e-08,9.157461701598781e-06
0.2233,1.133432532638173e-09,1.2823091682030958e-07,9.335063218391071e-06
0.2267,1.6394951667268361e-09,1.595979813814119e-07,9.635280450522497e-06
0.23,2.2511379715472947e-09,1.9152220747691854e-07,9.40322246454494e-06
0.2333,2.9668854165645727e-09,2.22560211729998e-07,9.035930419724492e-06
0.2367,3.782162545501192e-09,2.52113034297386e-07,8.355588880201757e-06
0.24,4.6898610096487885e-09,2.792724780396929e-07,7.524559470839426e-06
0.2433,5.6806923714640325e-09,3.0351981781498215e-07,6.5231236225124285e-06
0.2467,6.743773410356303e-09,3.243601866585597e-07,5.439066849682916e-06
0.25,7.867131663998229e-09,3.415399667230655e-07,4.298531493099743e-06
0.2533,9.038247529956133e-09,3.5491680129695916e-07,3.156603867366408e-06
0.2567,1.024451264207864e-08,3.6450996654129715e-07,2.041984437823679e-06
0.26,1.1473627368117467e-08,3.7043599966801123e-07,9.85285046654474e-07
0.2633,1.2713891958336344e-08,3.7290037526895757e-07,1.3950023293406091e-09
0.2667,1.3954398957341904e-08,3.7215318935997056e-07,-9.008079222702794e-07
0.27,1.518511956921788e-08,3.684654378781012e-07,-1.7228771452379227e-06
0.2733,1.6396899423069024e-08,3.6209815376297437e-07,-2.4721080068641316e-06
0.2767,1.7581378664637017e-08,3.532836125075846e-07,-3.161123415479009e-06
0.28,1.8730860982783823e-08,3.422103579167175e-07,-3.804532661671206e-06
0.2833,1.983815642007569e-08,3.2901812166071707e-07,-4.417082423539407e-06
0.2867,2.089642439607794e-08,3.1379942791797074e-07,-5.011181646047065e-06
0.29,2.1899040245908662e-08,2.9660871055213407e-07,-5.595311863035349e-06
0.2933,2.2839504553417488e-08,2.774764762290652e-07,-6.1727411047175515e-06
0.2967,2.371140819700428e-08,2.5642708994948677e-07,-6.741035277173703e-06
0.3,2.4508459081461598e-08,2.334976880363331e-07,-7.292171078509632e-06
0.3033,2.5224569092466468e-08,2.0875615082918684e-07,-7.813325601651028e-06
0.3067,2.5853992958568762e-08,1.82316016927756e-07,-8.288177666394903e-06
0.31,2.639150485532477e-08,1.543467213896291e-07,-8.698615077022662e-06
0.3133,2.6832594390239053e-08,1.2507798725666153e-07,-9.02662885373061e-06
0.3167,2.717366136027371e-08,9.479787879877602e-08,-9.256236475952466e-06
0.32,2.7412188537084393e-08,6.384460713019124e-08,-9.37520930401063e-06
0.3233,2.754687366595745e-08,3.2592854803828985e-08,-9.37646753906074e-06
0.3267,2.7577705627657458e-08,1.4358622208663584e-09,-9.258981164088415e-06
0.33,2.750597491224128e-08,-2.9235029559761428e-08,-9.02811944038097e-06
0.3333,2.7334214643186862e-08,-5.905150496997993e-08,-8.695405167701048e-06
0.3367,2.7066074810074e-08,-8.768810657983444e-08,-8.277699702437716e-06
0.34,2.670613851738675e-08,-1.148789511059138e-07,-7.795907937282975e-06
0.3433,2.6259694336168355e-08,-1.4042981936920845e-07,-7.273312102610052e-06
0.3467,2.5732482827193804e-08,-1.6422451633917607e-07,-6.733694467133199e-06
0.35,2.5130437643200247e-08,-1.862249329996501e-07,-6.1994114236195164e-06
0.3533,2.4459442124836304e-08,-2.0646479330518608e-07,-5.689593341761723e-06
0.3567,2.3725120961314425e-08,-2.250376346493125e-07,-5.218625225200022e-06
0.36,2.2932683442539314e-08,-2.4208006430533936e-07,-4.795035908635121e-06
0.3633,2.2086830406346616e-08,-2.5775172522776975e-07,-4.4208816999859405e-06
0.3667,2.1191731536060718e-08,-2.722136773290589e-07,-4.09169402470546e-06
0.37,2.0251073702655408e-08,-2.856070404731838e-07,-3.7969505529444722e-06
0.3733,1.9268175090432388e-08,-2.980336520301965e-07,-3.521079290767363e-06
0.3767,1.8246154355187397e-08,-3.0954039387601635e-07,-3.244849639930131e-06
0.38,1.718813953135327e-08,-3.2010842691839233e-07,-2.947088248797042e-06
0.3833,1.6097498128528186e-08,-3.296482641586326e-07,-2.6065377011404023e-06
0.3867,1.4978068115339684e-08,-3.380010533985647e-07,-2.203732022559255e-06
0.39,1.3834369378968022e-08,-3.4494599746390746e-07,-1.7227351794761505e-06
0.3933,1.2671776722052209e-08,-3.502133417366551e-07,-1.1526063516528835e-06
0.3967,1.1496638408850503e-08,-3.5350193043621386e-07,-4.884866120744379e-07
0.4,1.031632838841223e-08,-3.545000090788529e-07,2.6776569948939693e-07
0.4033,9.139225295907748e-09,-3.5290772050403817e-07,1.1074488173060416e-06
0.4067,7.974616768708992e-09,-3.4845961557753614e-07,2.01537841509485e-06
0.41,6.832533066761827e-09,-3.4094556117848666e-07,2.970728268642349e-06
0.4133,5.723519080702052e-09,-3.302285233203709e-07,3.948258106549259e-06
0.4167,4.658358170479236e-09,-3.162579947866768e-07,4.919856639329052e-06
0.42,3.647764601448257e-09,-2.9907813003091257e-07,5.856263753651552e-06
0.4233,2.7020634253624382e-09,-2.788300765432369e-07,6.728868168308851e-06
0.4267,1.8308773735023361e-09,-2.55748373163246e-07,7.511434129535677e-06
0.43,1.042839680735917e-09,-2.3015173188902967e-07,8.181661128206571e-06
0.4333,3.453498089001488e-10,-2.0242886831868113e-07,8.72244638813659e-06
0.4367,-2.556140525556625e-10,-1.7302041640131746e-07,9.122796228846648e-06
0.44,-7.556157825380466e-10,-1.4239815795533002e-07,9.378314255961076e-06
0.4433,-1.1518100492316032e-09,-1.1104299333342373e-07,9.491247413572324e-06
0.4467,-1.4429184176164011e-09,-7.942311902845278e-08,9.470099498240075e-06
0.45,-1.6291370644184458e-09,-4.797383197908712e-08,9.328838577578702e-06
0.4533,-1.7119846934443361e-09,-1.708025017322103e-08,9.085775177889718e-06
0.4567,-1.6941029421502364e-09,1.2936005135120439e-08,8.762173785997229e-06
0.46,-1.5790243650979348e-09,4.182537927572093e-08,8.380720825072077e-06
0.4633,-1.370924792513816e-09,6.941379494331814e-08,7.963929845818154e-06
0.4667,-1.0743774050414576e-09,9.560080833201264e-08,7.532620378063893e-06
0.47,-6.941251981271925e-10,1.2035282462253575e-07,7.104552600579095e-06
0.4733,-2.3488673543581865e-10,1.436919734997851e-07,6.693315368965191e-06
0.4767,2.9879268962171857e-10,1.6568156007829296e-07,6.307552622307948e-06
0.48,9.026359528639285e-10,1.8640923839512989e-07,5.950551244676846e-06
0.4833,1.5726706293836634e-09,2.0596915728530068e-07,5.620244339858984e-06
0.4867,2.30520711211238e-09,2.2444443966993133e-07,5.309601502428362e-06
0.49,3.0967626104207506e-09,2.4189127179630685e-07,5.0073899463807865e-06
0.4933,3.943939299744154e-09,2.583257828220144e-07,4.699239531500129e-06
0.4967,4.843268264177199e-09,2.7371467022980674e-07,4.368942680244267e-06
0.5,5.7910334041800185e-09,2.879702726265935e-07,3.999891486995913e-06
0.5033,6.783090967998986e-09,3.00950454449303e-07,3.5765406774243542e-06
0.5067,7.814700734520707e-09,3.1246332052721804e-07,3.085814557034904e-06
0.51,8.880384098466168e-09,3.222764592398009e-07,2.518320479043765e-06
0.5133,9.973822407871137e-09,3.3013002942362813e-07,1.8693209387820257e-06
0.5167,1.108780607304393e-08,3.3575280189145185e-07,1.1393628243421095e-06
0.52,1.2214241356258678e-08,3.3887998802509985e-07,3.3453415282473596e-07
0.5233,1.3344217634407941e-08,3.3927159560664675e-07,-5.336734526003147e-07
0.5267,1.4468133627810221e-08,3.3673000405894723e-07,-1.448888902458867e-06
0.53,1.5575876875697154e-08,3.311155016631902e-07,-2.3907348487740636e-06
0.5333,1.665704694404521e-08,3.2235867758637375e-07,-3.3359822890181938e-06
0.5367,1.7701209762082383e-08,3.1046879831182764e-07,-4.259905469656272e-06
0.54,1.8698168291018303e-08,2.9553757821876644e-07,-5.137744195597286e-06
0.5433,1.963823360950342e-08,2.777380860095491e-07,-5.946153883449876e-06
0.5467,2.0512480543771114e-08,2.57318899737506e-07,-6.664557079958419e-06
0.55,2.131297312664285e-08,2.3459392920204562e-07,-7.276288064941198e-06
0.5533,2.203294737011841e-08,2.099286561907136e-07,-7.769457625292527e-06
0.5567,2.266694191982655e-08,1.8372377839523526e-07,-8.137474323585304e-06
0.56,2.3210870828970777e-08,1.5639741087287073e-07,-8.37921163755022e-06
0.5633,2.366203669812361e-08,1.2836705652152702e-07,-8.498783725075123e-06
0.5667,2.4019086477021357e-08,1.0003259154582122e-07,-8.505000140304142e-06
0.57,2.4281915943960196e-08,7.176132314382595e-08,-8.410515021008326e-06
0.5733,2.44515320644479e-08,4.387606229689568e-08,-8.230761403484843e-06
0.5767,2.4529884806876228e-08,1.6646848948753347e-08,-7.982765411604937e-06
0.58,2.4519681382367264e-08,-9.713332565305556e-09,-7.683915390466368e-06
0.5833,2.4424196260765023e-08,-3.5048794952429494e-08,-7.350802742250426e-06
0.5867,2.4247089652749133e-08,-5.925764215577644e-08,-6.998202730989939e-06
0.59,2.3992245536654644e-08,-8.228505661429764e-08,-6.638283748480367e-06
0.5933,2.3663637931150528e-08,-1.0411416656158407e-07,-6.2800755639901195e-06
0.5967,2.3265231206243478e-08,-1.2475539140494996e-07,-5.9292382717716245e-06
0.6,2.2800917033555482e-08,-1.442352574016709e-07,-5.5881198052380184e-06
0.6033,2.2274487393962655e-08,-1.625856283812159e-07,-5.256081449528192e-06
0.6067,2.1689640160831323e-08,-1.7983420432850716e-07,-4.930042736747388e-06
0.61,2.1050011397304143e-08,-1.9599696124993403e-07,-4.605176299094247e-06
0.6133,2.0359226825793887e-08,-2.110729785565663e-07,-4.27568832955809e-06
0.6167,1.962096405708615e-08,-2.2504186156615096e-07,-3.935591341757754e-06
0.62,1.883901714568278e-08,-2.3786368759768637e-07,-3.579414200925217e-06
0.6233,1.8017355790174235e-08,-2.4948120415504166e-07,-3.202774537279877e-06
0.6267,1.7160172949691717e-08,-2.598237811135683e-07,-2.8027663090846535e-06
0.63,1.627191658446829e-08,-2.688124964557618e-07,-2.378157372071253e-06
0.6333,1.5357303412094324e-08,-2.7636569620311954e-07,-1.929365806488483e-06
0.6367,1.4421314803049097e-08,-2.82404332904787e-07,-1.458265204155318e-06
0.64,1.3469176959564899e-08,-2.8685651837605773e-07,-9.678259073109872e-07
0.6433,1.250632911900772e-08,-2.896608173750149e-07,-4.6168041813016866e-07
0.6467,1.1538384546162284e-08,-2.90768048771997e-07,5.636383808310103e-08
0.65,1.0571089435587095e-08,-2.9014150649771517e-07,5.827590677240368e-07
0.6533,9.610284515844053e-09,-2.877557868519516e-07,1.1145858113763524e-06
0.6567,8.661873187251323e-09,-2.83594521194831e-07,1.6497603770002374e-06
0.66,7.731798533893803e-09,-2.7764754080903555e-07,2.187093935102235e-06
0.6633,6.826029748380053e-09,-2.699080038304387e-07,2.7261607511147893e-06
0.6667,5.9505565715237415e-09,-2.6037010057759064e-07,3.266999409770767e-06
0.67,5.111388513874949e-09,-2.4902786797677763e-07,3.8096782275523273e-06
0.6733,4.314554146045356e-09,-2.3587553108022647e-07,4.353766503928602e-06
0.6767,3.5660947570453797e-09,-2.2090963328624187e-07,4.897774325743155e-06
0.68,2.872046351553752e-09,-2.041330014885597e-07,5.438631239423809e-06
0.6833,2.238404383797517e-09,-1.855603595321158e-07,5.971272267041589e-06
0.6867,1.671066753123297e-09,-1.6522519469107503e-07,6.488376231715731e-06
0.69,1.1757523566332289e-09,-1.431873086102003e-07,6.980329425551798e-06
0.6933,7.578947910587766e-10,-1.1954030280875366e-07,7.4354131307731064e-06
0.6967,4.225133682657931e-10,-9.441822832214992e-08,7.840244090827413e-06
0.7,1.7406624271861666e-10,-6.800058505386827e-08,8.180433444369377e-06
0.7033,1.6292880120622493e-11,-4.051497031013032e-08,8.441430903441451e-06
0.7067,-4.794492793425428e-11,-1.2236811514568083e-08,8.609491202258315e-06
0.71,-1.6812967129777285e-11,1.6514163819452705e-08,8.672690040900865e-06
0.7133,1.1036560864690544e-10,4.538080838033434e-08,8.621896570037358e-06
0.7167,3.330112099543799e-10,7.397858253297708e-08,8.451632555894606e-06
0.72,6.492287578766413e-10,1.0190827431654604e-07,8.160725912356307e-06
0.7233,1.0557957550370716e-09,1.2877068153218317e-07,7.752704612141265e-06
0.7267,1.5482017208382019e-09,1.5418234926710614e-07,7.23588147668514e-06
0.73,2.120739880689275e-09,1.7779131674612834e-07,6.623110999398341e-06
0.7333,2.766648444215368e-09,1.9929179137589056e-07,5.931231507398386e-06
0.7367,3.4782953116951097e-09,2.1843671234557467e-07,5.180206144586807e-06
0.74,4.247396914571047e-09,2.3504727499911892e-07,4.392052848934368e-06
0.7433,5.065259400222472e-09,2.4901874242687277e-07,3.589599084824891e-06
0.7467,5.923028682358317e-09,2.6032206742784717e-07,2.795190091722404e-06
0.75,6.811935181404943e-09,2.6900122304884037e-07,2.029414431428331e-06
0.7533,7.723519428378968e-09,2.7516639958691194e-07,1.3099671032984764e-06
0.7567,8.649826059028054e-09,2.789835742674563e-07,6.507074101638551e-07
0.76,9.583556006910309e-09,2.8066118581635525e-07,6.101123414281435e-08
0.7633,1.0518169718467947e-08,2.804349012908694e-07,-4.5457507986081605e-07
0.7667,1.1447937713707019e-08,2.7855153133407616e-07,-8.963182661956251e-07
0.77,1.2367938548948536e-08,2.7525326451434717e-07,-1.2689646103772562e-06
0.7733,1.327400788482857e-08,2.707632768430396e-07,-1.5810903198102695e-06
0.7767,1.4162645652138217e-08,2.652737024867499e-07,-1.844216978702689e-06
0.78,1.5030890996380455e-08,2.5893670450532866e-07,-2.0717451531368604e-06
0.7833,1.5876176559850237e-08,2.518591647726725e-07,-2.2778105573746906e-06
0.7867,1.6696174612915435e-08,2.4410119193239576e-07,-2.4761339139829656e-06
0.79,1.7488647528417996e-08,2.3567838278372002e-07,-2.678967258077404e-06
0.7933,1.8251314120732483e-08,2.2656745975772612e-07,-2.896203716948833e-06
0.7967,1.898174157335472e-08,2.1671468932533982e-07,-3.134711053757189e-06
0.8,1.9677270223913214e-08,2.060462946026e-07,-3.3979380001791325e-06
0.8033,2.0334975573973637e-08,1.9447995084258164e-07,-3.6857957947335133e-06
0.8067,2.095166881499463e-08,1.819364389966102e-07,-3.994823884692741e-06
0.81,2.1523934142477315e-08,1.6835054408526581e-07,-4.318599048423316e-06
0.8133,2.2048198422623714e-08,1.5368042001379724e-07,-4.64834829471234e-06
0.8167,2.2520826575771808e-08,1.3791479385407184e-07,-4.973702804437357e-06
0.82,2.2938234501016827e-08,1.2107759991456458e-07,-5.283520359306212e-06
0.8233,2.3297010581256968e-08,1.032298685097647e-07,-5.566712415691541e-06
0.8267,2.3594036774873566e-08,8.446891272220619e-08,-5.813005291343973e-06
0.83,2.38266010030211e-08,6.49250827635429e-08,-6.013575485827644e-06
0.8333,2.3992493850666145e-08,4.475653066635762e-08,-6.1615313218656675e-06
0.8367,2.4090084363112787e-08,2.4142537563455407e-08,-6.252192915984879e-06
0.84,2.4118371782557693e-08,3.2760623892638565e-09,-6.283186559870403e-06
0.8433,2.407701219207244e-08,-1.7643864541666054e-08,-6.254347723744894e-06
0.8467,2.3966321049738914e-08,-3.8419293656784026e-08,-6.16746688708734e-06
0.85,2.3787254338480075e-08,-5.885955960790738e-08,-6.025913678990983e-06
0.8533,2.354137237745637e-08,-7.878616958406999e-08,-5.83418625397682e-06
0.8567,2.3230791169672585e-08,-9.803616692743407e-08,-5.5974335285866834e-06
0.86,2.2858126464859744e-08,-1.1646391841410081e-07,-5.320996869852828e-06
0.8633,2.2426435495824508e-08,-1.339414302873664e-07,-5.01001953316927e-06
0.8667,2.1939160680056e-08,-1.503574332121124e-07,-4.669141054328086e-06
0.87,2.14000785903148e-08,-1.6561554690710634e-07,-4.302309687118986e-06
0.8733,2.0813256277250756e-08,-1.7963191823476023e-07,-3.912713239603884e-06
0.8767,2.018301574156649e-08,-1.9233271870145262e-07,-3.5028178580021747e-06
0.88,1.9513906142941477e-08,-2.0365185574971723e-07,-3.0745082252248267e-06
0.8833,1.8810682309701345e-08,-2.1352919936718488e-07,-2.629285345254969e-06
0.8867,1.8078287369366187e-08,-2.2190951064347108e-07,-2.1685155273760197e-06
0.89,1.7321836916621172e-08,-2.287421880304728e-07,-1.69366467738622e-06
0.8933,1.6546602099896943e-08,-2.3398178700208683e-07,-1.206523503079306e-06
0.8967,1.5757989292995656e-08,-2.3758923221158594e-07,-7.093628948292293e-07
0.9,1.49615146003872e-08,-2.3953349687410963e-07,-2.050284538637446e-07
0.9033,1.4162772210956867e-08,-2.397935270044423e-07,3.030492662689951e-07
0.9067,1.336739647947274e-08,-2.3836013163528927e-07,8.109263074947793e-07
0.91,1.2581018471865828e-08,-2.3523758404995004e-07,1.314277446485719e-06
0.9133,1.1809218442587917e-08,-2.304447320426882e-07,1.8085889434919736e-06
0.9167,1.105747626242848e-08,-2.2401545215682943e-07,2.2893675224184925e-06
0.92,1.0331122096247623e-08,-2.1599840055987189e-07,2.7523574660150066e-06
0.9233,9.63528963882294e-09,-2.064560646967692e-07,3.193728396334511e-06
0.9267,8.974873943253554e-09,-1.9546322903929618e-07,3.6102150179209373e-06
0.93,8.354495346285173e-09,-1.8310502955742468e-07,3.999191421737482e-06
0.9333,7.778470303708689e-09,-1.6947481877771466e-07,4.358675468918764e-06
0.9367,7.250789146271128e-09,-1.546720859768863e-07,4.687249477310076e-06
0.94,6.775099956238912e-09,-1.3880068708105108e-07,4.983926515131569e-06
0.9433,6.354697053791003e-09,-1.2196757313898396e-07,5.247953231253757e-06
0.9467,5.992512015181159e-09,-1.0428219509967672e-07,5.478589799391973e-06
0.95,5.6911048267195036e-09,-8.58566464464237e-08,5.674884657857898e-06
0.9533,5.4526527500427895e-09,-6.680653752699108e-08,5.835472255176326e-06
0.9567,5.2789347074484185e-09,-4.725250807957875e-08,5.95841397843373e-06
0.96,5.17130951470315e-09,-2.732220554978774e-08,6.04111641913534e-06
0.9633,5.130687053447097e-09,-7.152471323419015e-09,6.0803270766850536e-06
0.9667,5.15749238349708e-09,1.310853766331571e-08,6.072224795036115e-06
0.97,5.251623802557416e-09,3.329960851026755e-08,6.012605888670834e-06
0.9733,5.412406864464606e-09,5.324541501877383e-08,5.897145459240718e-06
0.9767,5.638547262234443e-09,7.27563948963586e-08,5.721734892559142e-06
0.98,5.928086216843931e-09,9.16297827245782e-08,5.482856283125957e-06
0.9833,6.278362491692946e-09,1.0965190968305165e-07,5.177979267677851e-06
0.9867,6.685985328627917e-09,1.2660181071211877e-07,4.805939450583453e-06
0.99,7.146822478073284e-09,1.4225606809884079e-07,4.367286835378733e-06
0.9933,7.656007045086827e-09,1.5639474661272844e-07,3.864550389577149e-06
0.9967,8.207966097704028e-09,1.6880814266189195e-07,3.302421174554485e-06
1.0,8.796472993615982e-09,1.793040523999802e-07,2.687825696719349e-06
1.003,9.414724177415532e-09,1.877151740211984e-07,2.029866879664424e-06
1.007,1.0055439863292892e-08,1.939062242038674e-07,1.339658126029776e-06
1.01,1.0710986663008243e-08,1.9778038341042145e-07,6.30015759796861e-07
1.013,1.1373518882198445e-08,1.9928464008840554e-07,-8.493961913577623e-08
1.017,1.2035134007196617e-08,1.9841371561891937e-07,-7.902903014096953e-07
1.02,1.268803688113086e-08,1.952122484610525e-07,-1.4708889332371937e-06
1.023,1.3324706296459435e-08,1.8977504619505946e-07,-2.111974642367293e-06
1.027,1.3938057265664284e-08,1.8224527553171357e-07,-2.699799100289199e-06
1.03,1.452159209886785e-08,1.7281058267134552e-07,-3.2222319155139937e-06
1.033,1.5069533633364776e-08,1.6169723438485932e-07,-3.6693195868918044e-06
1.037,1.5576934528330296e-08,1.491624717736185e-07,-4.033753428596202e-06
1.04,1.603975746217913e-08,1.3548539112874548e-07,-4.311233275529189e-06
1.043,1.645492228771732e-08,1.2095672818304883e-07,-4.500692295695397e-06
1.047,1.682031769445766e-08,1.0586802291849609e-07,-4.6043658862789945e-06
1.05,1.713477661424939e-08,9.050068514922703e-08,-4.627704054741419e-06
1.053,1.7398016420930393e-08,7.511550574612327e-08,-4.579099505765079e-06
1.057,1.7610546832895536e-08,5.994319410781575e-08,-4.469471884937863e-06
1.06,1.7773550192516414e-08,4.5176437681387426e-08,-4.311688588422988e-06
1.063,1.788874043132833e-08,3.096399035250085e-08,-4.119867691115957e-06
1.067,1.7958208367378834e-08,1.7407152987983194e-08,-3.908598579786749e-06
1.07,1.7984261940528717e-08,4.558904294368947e-09,-3.6920996751265467e-06
1.073,1.796927051942391e-08,-7.574175782635418e-09,-3.483394217157087e-06
1.077,1.7915522401444922e-08,-1.9027261320038928e-08,-3.293517303264396e-06
1.08,1.7825104063376685e-08,-2.9870094400951144e-08,-3.130845240491565e-06
1.083,1.769980858765524e-08,-4.019767357004664e-08,-3.000556855654986e-06
1.087,1.7541079042441185e-08,-5.0119318779264325e-08,-2.9043013536588057e-06
1.09,1.734999048200161e-08,-5.97468085127339e-08,-2.8400813578420784e-06
1.093,1.7127271777537867e-08,-6.918233318897392e-08,-2.802383321706345e-06
1.097,1.687336584035904e-08,-7.85070861358893e-08,-2.782551380942502e-06
